       V(V1)      I(D1)
                    (A)
   0.000E+00  1.000E-50
   2.002E-03  2.855E-15
   4.004E-03  5.711E-15
   6.006E-03  8.657E-15
   8.008E-03  1.169E-14
   1.001E-02  1.473E-14
   1.201E-02  1.799E-14
   1.401E-02  2.124E-14
   1.602E-02  2.465E-14
   1.802E-02  2.817E-14
   2.002E-02  3.170E-14
   2.202E-02  3.555E-14
   2.402E-02  3.939E-14
   2.603E-02  4.346E-14
   2.803E-02  4.771E-14
   3.003E-02  5.195E-14
   3.203E-02  5.667E-14
   3.403E-02  6.139E-14
   3.604E-02  6.644E-14
   3.804E-02  7.174E-14
   4.004E-02  7.705E-14
   4.204E-02  8.305E-14
   4.404E-02  8.906E-14
   4.605E-02  9.554E-14
   4.805E-02  1.024E-13
   5.005E-02  1.093E-13
   5.205E-02  1.172E-13
   5.405E-02  1.251E-13
   5.606E-02  1.337E-13
   5.806E-02  1.428E-13
   6.006E-02  1.520E-13
   6.206E-02  1.627E-13
   6.406E-02  1.733E-13
   6.607E-02  1.851E-13
   6.807E-02  1.976E-13
   7.007E-02  2.102E-13
   7.207E-02  2.249E-13
   7.407E-02  2.397E-13
   7.608E-02  2.560E-13
   7.808E-02  2.735E-13
   8.008E-02  2.911E-13
   8.208E-02  3.119E-13
   8.408E-02  3.327E-13
   8.609E-02  3.558E-13
   8.809E-02  3.806E-13
   9.009E-02  4.056E-13
   9.209E-02  4.353E-13
   9.409E-02  4.649E-13
   9.610E-02  4.980E-13
   9.810E-02  5.335E-13
   1.001E-01  5.694E-13
   1.021E-01  6.121E-13
   1.041E-01  6.548E-13
   1.061E-01  7.023E-13
   1.081E-01  7.537E-13
   1.101E-01  8.056E-13
   1.121E-01  8.675E-13
   1.141E-01  9.295E-13
   1.161E-01  9.984E-13
   1.181E-01  1.073E-12
   1.201E-01  1.149E-12
   1.221E-01  1.239E-12
   1.241E-01  1.329E-12
   1.261E-01  1.430E-12
   1.281E-01  1.539E-12
   1.301E-01  1.649E-12
   1.321E-01  1.780E-12
   1.341E-01  1.912E-12
   1.361E-01  2.059E-12
   1.381E-01  2.219E-12
   1.401E-01  2.380E-12
   1.421E-01  2.573E-12
   1.441E-01  2.766E-12
   1.461E-01  2.982E-12
   1.481E-01  3.215E-12
   1.502E-01  3.466E-12
   1.522E-01  3.749E-12
   1.542E-01  4.032E-12
   1.562E-01  4.352E-12
   1.582E-01  4.695E-12
   1.602E-01  5.045E-12
   1.622E-01  5.461E-12
   1.642E-01  5.877E-12
   1.662E-01  6.346E-12
   1.682E-01  6.850E-12
   1.702E-01  7.365E-12
   1.722E-01  7.977E-12
   1.742E-01  8.588E-12
   1.762E-01  9.277E-12
   1.782E-01  1.002E-11
   1.802E-01  1.078E-11
   1.822E-01  1.167E-11
   1.842E-01  1.257E-11
   1.862E-01  1.359E-11
   1.882E-01  1.468E-11
   1.902E-01  1.579E-11
   1.922E-01  1.711E-11
   1.942E-01  1.843E-11
   1.962E-01  1.993E-11
   1.982E-01  2.153E-11
   2.002E-01  2.317E-11
   2.022E-01  2.511E-11
   2.042E-01  2.706E-11
   2.062E-01  2.925E-11
   2.082E-01  3.161E-11
   2.102E-01  3.402E-11
   2.122E-01  3.688E-11
   2.142E-01  3.974E-11
   2.162E-01  4.297E-11
   2.182E-01  4.644E-11
   2.202E-01  4.999E-11
   2.222E-01  5.420E-11
   2.242E-01  5.841E-11
   2.262E-01  6.316E-11
   2.282E-01  6.827E-11
   2.302E-01  7.349E-11
   2.322E-01  7.969E-11
   2.342E-01  8.589E-11
   2.362E-01  9.288E-11
   2.382E-01  1.004E-10
   2.402E-01  1.081E-10
   2.422E-01  1.172E-10
   2.442E-01  1.263E-10
   2.462E-01  1.366E-10
   2.482E-01  1.477E-10
   2.503E-01  1.597E-10
   2.523E-01  1.731E-10
   2.543E-01  1.865E-10
   2.563E-01  2.018E-10
   2.583E-01  2.181E-10
   2.603E-01  2.349E-10
   2.623E-01  2.546E-10
   2.643E-01  2.744E-10
   2.663E-01  2.969E-10
   2.683E-01  3.209E-10
   2.703E-01  3.456E-10
   2.723E-01  3.747E-10
   2.743E-01  4.038E-10
   2.763E-01  4.369E-10
   2.783E-01  4.722E-10
   2.803E-01  5.086E-10
   2.823E-01  5.514E-10
   2.843E-01  5.942E-10
   2.863E-01  6.430E-10
   2.883E-01  6.949E-10
   2.903E-01  7.485E-10
   2.923E-01  8.115E-10
   2.943E-01  8.745E-10
   2.963E-01  9.463E-10
   2.983E-01  1.023E-09
   3.003E-01  1.102E-09
   3.023E-01  1.194E-09
   3.043E-01  1.287E-09
   3.063E-01  1.393E-09
   3.083E-01  1.505E-09
   3.103E-01  1.621E-09
   3.123E-01  1.758E-09
   3.143E-01  1.894E-09
   3.163E-01  2.050E-09
   3.183E-01  2.215E-09
   3.203E-01  2.386E-09
   3.223E-01  2.587E-09
   3.243E-01  2.788E-09
   3.263E-01  3.017E-09
   3.283E-01  3.261E-09
   3.303E-01  3.512E-09
   3.323E-01  3.808E-09
   3.343E-01  4.104E-09
   3.363E-01  4.441E-09
   3.383E-01  4.799E-09
   3.403E-01  5.170E-09
   3.423E-01  5.605E-09
   3.443E-01  6.040E-09
   3.463E-01  6.536E-09
   3.483E-01  7.064E-09
   3.504E-01  7.641E-09
   3.524E-01  8.282E-09
   3.544E-01  8.923E-09
   3.564E-01  9.659E-09
   3.584E-01  1.044E-08
   3.604E-01  1.125E-08
   3.624E-01  1.219E-08
   3.644E-01  1.313E-08
   3.664E-01  1.422E-08
   3.684E-01  1.536E-08
   3.704E-01  1.655E-08
   3.724E-01  1.794E-08
   3.744E-01  1.933E-08
   3.764E-01  2.093E-08
   3.784E-01  2.261E-08
   3.804E-01  2.437E-08
   3.824E-01  2.641E-08
   3.844E-01  2.845E-08
   3.864E-01  3.080E-08
   3.884E-01  3.328E-08
   3.904E-01  3.586E-08
   3.924E-01  3.887E-08
   3.944E-01  4.188E-08
   3.964E-01  4.534E-08
   3.984E-01  4.898E-08
   4.004E-01  5.279E-08
   4.024E-01  5.722E-08
   4.044E-01  6.164E-08
   4.064E-01  6.673E-08
   4.084E-01  7.210E-08
   4.104E-01  7.770E-08
   4.124E-01  8.422E-08
   4.144E-01  9.073E-08
   4.164E-01  9.822E-08
   4.184E-01  1.061E-07
   4.204E-01  1.144E-07
   4.224E-01  1.240E-07
   4.244E-01  1.335E-07
   4.264E-01  1.446E-07
   4.284E-01  1.562E-07
   4.304E-01  1.683E-07
   4.324E-01  1.825E-07
   4.344E-01  1.966E-07
   4.364E-01  2.128E-07
   4.384E-01  2.299E-07
   4.404E-01  2.478E-07
   4.424E-01  2.686E-07
   4.444E-01  2.893E-07
   4.464E-01  3.132E-07
   4.484E-01  3.384E-07
   4.505E-01  3.662E-07
   4.525E-01  3.968E-07
   4.545E-01  4.274E-07
   4.565E-01  4.629E-07
   4.585E-01  5.000E-07
   4.605E-01  5.390E-07
   4.625E-01  5.841E-07
   4.645E-01  6.291E-07
   4.665E-01  6.813E-07
   4.685E-01  7.359E-07
   4.705E-01  7.934E-07
   4.725E-01  8.597E-07
   4.745E-01  9.259E-07
   4.765E-01  1.003E-06
   4.785E-01  1.083E-06
   4.805E-01  1.168E-06
   4.825E-01  1.265E-06
   4.845E-01  1.363E-06
   4.865E-01  1.476E-06
   4.885E-01  1.594E-06
   4.905E-01  1.719E-06
   4.925E-01  1.862E-06
   4.945E-01  2.006E-06
   4.965E-01  2.172E-06
   4.985E-01  2.347E-06
   5.005E-01  2.530E-06
   5.025E-01  2.741E-06
   5.045E-01  2.952E-06
   5.065E-01  3.197E-06
   5.085E-01  3.454E-06
   5.105E-01  3.724E-06
   5.125E-01  4.035E-06
   5.145E-01  4.346E-06
   5.165E-01  4.706E-06
   5.185E-01  5.083E-06
   5.205E-01  5.481E-06
   5.225E-01  5.938E-06
   5.245E-01  6.396E-06
   5.265E-01  6.926E-06
   5.285E-01  7.481E-06
   5.305E-01  8.066E-06
   5.325E-01  8.739E-06
   5.345E-01  9.413E-06
   5.365E-01  1.019E-05
   5.385E-01  1.101E-05
   5.405E-01  1.187E-05
   5.425E-01  1.286E-05
   5.445E-01  1.385E-05
   5.465E-01  1.500E-05
   5.485E-01  1.620E-05
   5.506E-01  1.754E-05
   5.526E-01  1.900E-05
   5.546E-01  2.046E-05
   5.566E-01  2.216E-05
   5.586E-01  2.393E-05
   5.606E-01  2.581E-05
   5.626E-01  2.796E-05
   5.646E-01  3.010E-05
   5.666E-01  3.261E-05
   5.686E-01  3.521E-05
   5.706E-01  3.797E-05
   5.726E-01  4.113E-05
   5.746E-01  4.428E-05
   5.766E-01  4.797E-05
   5.786E-01  5.179E-05
   5.806E-01  5.586E-05
   5.826E-01  6.049E-05
   5.846E-01  6.512E-05
   5.866E-01  7.054E-05
   5.886E-01  7.616E-05
   5.906E-01  8.213E-05
   5.926E-01  8.893E-05
   5.946E-01  9.574E-05
   5.966E-01  1.037E-04
   5.986E-01  1.119E-04
   6.006E-01  1.207E-04
   6.026E-01  1.307E-04
   6.046E-01  1.407E-04
   6.066E-01  1.523E-04
   6.086E-01  1.644E-04
   6.106E-01  1.773E-04
   6.126E-01  1.919E-04
   6.146E-01  2.065E-04
   6.166E-01  2.236E-04
   6.186E-01  2.413E-04
   6.206E-01  2.601E-04
   6.226E-01  2.815E-04
   6.246E-01  3.029E-04
   6.266E-01  3.278E-04
   6.286E-01  3.536E-04
   6.306E-01  3.810E-04
   6.326E-01  4.122E-04
   6.346E-01  4.434E-04
   6.366E-01  4.796E-04
   6.386E-01  5.172E-04
   6.406E-01  5.570E-04
   6.426E-01  6.022E-04
   6.446E-01  6.475E-04
   6.466E-01  7.000E-04
   6.486E-01  7.543E-04
   6.507E-01  8.151E-04
   6.527E-01  8.803E-04
   6.547E-01  9.454E-04
   6.567E-01  1.021E-03
   6.587E-01  1.099E-03
   6.607E-01  1.183E-03
   6.627E-01  1.276E-03
   6.647E-01  1.369E-03
   6.667E-01  1.477E-03
   6.687E-01  1.588E-03
   6.707E-01  1.706E-03
   6.727E-01  1.837E-03
   6.747E-01  1.969E-03
   6.767E-01  2.120E-03
   6.787E-01  2.276E-03
   6.807E-01  2.440E-03
   6.827E-01  2.623E-03
   6.847E-01  2.805E-03
   6.867E-01  3.014E-03
   6.887E-01  3.228E-03
   6.907E-01  3.454E-03
   6.927E-01  3.702E-03
   6.947E-01  3.950E-03
   6.967E-01  4.232E-03
   6.987E-01  4.519E-03
   7.007E-01  4.821E-03
   7.027E-01  5.151E-03
   7.047E-01  5.480E-03
   7.067E-01  5.849E-03
   7.087E-01  6.225E-03
   7.107E-01  6.618E-03
   7.127E-01  7.044E-03
   7.147E-01  7.469E-03
   7.167E-01  7.939E-03
   7.187E-01  8.416E-03
   7.207E-01  8.913E-03
   7.227E-01  9.445E-03
   7.247E-01  9.977E-03
   7.267E-01  1.056E-02
   7.287E-01  1.114E-02
   7.307E-01  1.175E-02
   7.327E-01  1.240E-02
   7.347E-01  1.304E-02
   7.367E-01  1.374E-02
   7.387E-01  1.444E-02
   7.407E-01  1.516E-02
   7.427E-01  1.592E-02
   7.447E-01  1.668E-02
   7.467E-01  1.749E-02
   7.487E-01  1.830E-02
   7.508E-01  1.918E-02
   7.528E-01  2.005E-02
   7.548E-01  2.092E-02
   7.568E-01  2.183E-02
   7.588E-01  2.276E-02
   7.608E-01  2.370E-02
   7.628E-01  2.467E-02
   7.648E-01  2.565E-02
   7.668E-01  2.666E-02
   7.688E-01  2.768E-02
   7.708E-01  2.872E-02
   7.728E-01  2.979E-02
   7.748E-01  3.086E-02
   7.768E-01  3.196E-02
   7.788E-01  3.308E-02
   7.808E-01  3.420E-02
   7.828E-01  3.536E-02
   7.848E-01  3.651E-02
   7.868E-01  3.769E-02
   7.888E-01  3.889E-02
   7.908E-01  4.009E-02
   7.928E-01  4.132E-02
   7.948E-01  4.255E-02
   7.968E-01  4.381E-02
   7.988E-01  4.507E-02
   8.008E-01  4.634E-02
   8.028E-01  4.764E-02
   8.048E-01  4.893E-02
   8.068E-01  5.025E-02
   8.088E-01  5.158E-02
   8.108E-01  5.291E-02
   8.128E-01  5.426E-02
   8.148E-01  5.562E-02
   8.168E-01  5.699E-02
   8.188E-01  5.837E-02
   8.208E-01  5.976E-02
   8.228E-01  6.116E-02
   8.248E-01  6.257E-02
   8.268E-01  6.399E-02
   8.288E-01  6.542E-02
   8.308E-01  6.686E-02
   8.328E-01  6.831E-02
   8.348E-01  6.976E-02
   8.368E-01  7.122E-02
   8.388E-01  7.269E-02
   8.408E-01  7.417E-02
   8.428E-01  7.566E-02
   8.448E-01  7.715E-02
   8.468E-01  7.865E-02
   8.488E-01  8.016E-02
   8.509E-01  8.175E-02
   8.529E-01  8.328E-02
   8.549E-01  8.480E-02
   8.569E-01  8.634E-02
   8.589E-01  8.788E-02
   8.609E-01  8.943E-02
   8.629E-01  9.099E-02
   8.649E-01  9.254E-02
   8.669E-01  9.411E-02
   8.689E-01  9.568E-02
   8.709E-01  9.726E-02
   8.729E-01  9.884E-02
   8.749E-01  1.004E-01
   8.769E-01  1.020E-01
   8.789E-01  1.036E-01
   8.809E-01  1.052E-01
   8.829E-01  1.068E-01
   8.849E-01  1.084E-01
   8.869E-01  1.101E-01
   8.889E-01  1.117E-01
   8.909E-01  1.133E-01
   8.929E-01  1.149E-01
   8.949E-01  1.166E-01
   8.969E-01  1.182E-01
   8.989E-01  1.199E-01
   9.009E-01  1.215E-01
   9.029E-01  1.232E-01
   9.049E-01  1.248E-01
   9.069E-01  1.265E-01
   9.089E-01  1.281E-01
   9.109E-01  1.298E-01
   9.129E-01  1.315E-01
   9.149E-01  1.331E-01
   9.169E-01  1.348E-01
   9.189E-01  1.365E-01
   9.209E-01  1.382E-01
   9.229E-01  1.399E-01
   9.249E-01  1.415E-01
   9.269E-01  1.432E-01
   9.289E-01  1.449E-01
   9.309E-01  1.466E-01
   9.329E-01  1.483E-01
   9.349E-01  1.500E-01
   9.369E-01  1.518E-01
   9.389E-01  1.535E-01
   9.409E-01  1.552E-01
   9.429E-01  1.569E-01
   9.449E-01  1.586E-01
   9.469E-01  1.603E-01
   9.489E-01  1.621E-01
   9.510E-01  1.639E-01
   9.530E-01  1.656E-01
   9.550E-01  1.673E-01
   9.570E-01  1.691E-01
   9.590E-01  1.708E-01
   9.610E-01  1.725E-01
   9.630E-01  1.743E-01
   9.650E-01  1.760E-01
   9.670E-01  1.778E-01
   9.690E-01  1.795E-01
   9.710E-01  1.813E-01
   9.730E-01  1.830E-01
   9.750E-01  1.848E-01
   9.770E-01  1.865E-01
   9.790E-01  1.883E-01
   9.810E-01  1.900E-01
   9.830E-01  1.918E-01
   9.850E-01  1.936E-01
   9.870E-01  1.953E-01
   9.890E-01  1.971E-01
   9.910E-01  1.989E-01
   9.930E-01  2.006E-01
   9.950E-01  2.024E-01
   9.970E-01  2.042E-01
   9.990E-01  2.059E-01
   1.001E+00  2.077E-01
   1.003E+00  2.095E-01
   1.005E+00  2.113E-01
   1.007E+00  2.131E-01
   1.009E+00  2.149E-01
   1.011E+00  2.166E-01
   1.013E+00  2.184E-01
   1.015E+00  2.202E-01
   1.017E+00  2.220E-01
   1.019E+00  2.238E-01
   1.021E+00  2.256E-01
   1.023E+00  2.274E-01
   1.025E+00  2.292E-01
   1.027E+00  2.310E-01
   1.029E+00  2.328E-01
   1.031E+00  2.346E-01
   1.033E+00  2.364E-01
   1.035E+00  2.382E-01
   1.037E+00  2.400E-01
   1.039E+00  2.418E-01
   1.041E+00  2.436E-01
   1.043E+00  2.454E-01
   1.045E+00  2.472E-01
   1.047E+00  2.490E-01
   1.049E+00  2.508E-01
   1.051E+00  2.527E-01
   1.053E+00  2.545E-01
   1.055E+00  2.563E-01
   1.057E+00  2.581E-01
   1.059E+00  2.599E-01
   1.061E+00  2.617E-01
   1.063E+00  2.636E-01
   1.065E+00  2.654E-01
   1.067E+00  2.672E-01
   1.069E+00  2.690E-01
   1.071E+00  2.709E-01
   1.073E+00  2.727E-01
   1.075E+00  2.745E-01
   1.077E+00  2.763E-01
   1.079E+00  2.782E-01
   1.081E+00  2.800E-01
   1.083E+00  2.818E-01
   1.085E+00  2.837E-01
   1.087E+00  2.855E-01
   1.089E+00  2.873E-01
   1.091E+00  2.892E-01
   1.093E+00  2.910E-01
   1.095E+00  2.928E-01
   1.097E+00  2.947E-01
   1.099E+00  2.965E-01
   1.101E+00  2.984E-01
   1.103E+00  3.002E-01
   1.105E+00  3.020E-01
   1.107E+00  3.039E-01
   1.109E+00  3.057E-01
   1.111E+00  3.076E-01
   1.113E+00  3.094E-01
   1.115E+00  3.113E-01
   1.117E+00  3.131E-01
   1.119E+00  3.150E-01
   1.121E+00  3.168E-01
   1.123E+00  3.187E-01
   1.125E+00  3.205E-01
   1.127E+00  3.224E-01
   1.129E+00  3.242E-01
   1.131E+00  3.261E-01
   1.133E+00  3.279E-01
   1.135E+00  3.298E-01
   1.137E+00  3.316E-01
   1.139E+00  3.335E-01
   1.141E+00  3.353E-01
   1.143E+00  3.372E-01
   1.145E+00  3.391E-01
   1.147E+00  3.409E-01
   1.149E+00  3.428E-01
   1.151E+00  3.446E-01
   1.153E+00  3.465E-01
   1.155E+00  3.484E-01
   1.157E+00  3.502E-01
   1.159E+00  3.521E-01
   1.161E+00  3.539E-01
   1.163E+00  3.558E-01
   1.165E+00  3.577E-01
   1.167E+00  3.595E-01
   1.169E+00  3.614E-01
   1.171E+00  3.633E-01
   1.173E+00  3.651E-01
   1.175E+00  3.670E-01
   1.177E+00  3.689E-01
   1.179E+00  3.707E-01
   1.181E+00  3.726E-01
   1.183E+00  3.745E-01
   1.185E+00  3.764E-01
   1.187E+00  3.782E-01
   1.189E+00  3.801E-01
   1.191E+00  3.820E-01
   1.193E+00  3.838E-01
   1.195E+00  3.857E-01
   1.197E+00  3.876E-01
   1.199E+00  3.895E-01
   1.201E+00  3.913E-01
   1.203E+00  3.932E-01
   1.205E+00  3.951E-01
   1.207E+00  3.970E-01
   1.209E+00  3.988E-01
   1.211E+00  4.007E-01
   1.213E+00  4.026E-01
   1.215E+00  4.045E-01
   1.217E+00  4.064E-01
   1.219E+00  4.082E-01
   1.221E+00  4.101E-01
   1.223E+00  4.120E-01
   1.225E+00  4.139E-01
   1.227E+00  4.158E-01
   1.229E+00  4.177E-01
   1.231E+00  4.195E-01
   1.233E+00  4.214E-01
   1.235E+00  4.233E-01
   1.237E+00  4.252E-01
   1.239E+00  4.271E-01
   1.241E+00  4.290E-01
   1.243E+00  4.309E-01
   1.245E+00  4.327E-01
   1.247E+00  4.346E-01
   1.249E+00  4.365E-01
   1.251E+00  4.384E-01
   1.253E+00  4.403E-01
   1.255E+00  4.422E-01
   1.257E+00  4.441E-01
   1.259E+00  4.460E-01
   1.261E+00  4.479E-01
   1.263E+00  4.497E-01
   1.265E+00  4.516E-01
   1.267E+00  4.535E-01
   1.269E+00  4.554E-01
   1.271E+00  4.573E-01
   1.273E+00  4.592E-01
   1.275E+00  4.611E-01
   1.277E+00  4.630E-01
   1.279E+00  4.649E-01
   1.281E+00  4.668E-01
   1.283E+00  4.687E-01
   1.285E+00  4.706E-01
   1.287E+00  4.725E-01
   1.289E+00  4.744E-01
   1.291E+00  4.763E-01
   1.293E+00  4.782E-01
   1.295E+00  4.801E-01
   1.297E+00  4.820E-01
   1.299E+00  4.839E-01
   1.301E+00  4.857E-01
   1.303E+00  4.876E-01
   1.305E+00  4.895E-01
   1.307E+00  4.914E-01
   1.309E+00  4.933E-01
   1.311E+00  4.952E-01
   1.313E+00  4.971E-01
   1.315E+00  4.991E-01
   1.317E+00  5.010E-01
   1.319E+00  5.029E-01
   1.321E+00  5.048E-01
   1.323E+00  5.067E-01
   1.325E+00  5.086E-01
   1.327E+00  5.105E-01
   1.329E+00  5.124E-01
   1.331E+00  5.143E-01
   1.333E+00  5.162E-01
   1.335E+00  5.181E-01
   1.337E+00  5.200E-01
   1.339E+00  5.219E-01
   1.341E+00  5.238E-01
   1.343E+00  5.257E-01
   1.345E+00  5.276E-01
   1.347E+00  5.295E-01
   1.349E+00  5.314E-01
   1.351E+00  5.333E-01
   1.353E+00  5.352E-01
   1.355E+00  5.371E-01
   1.357E+00  5.391E-01
   1.359E+00  5.410E-01
   1.361E+00  5.429E-01
   1.363E+00  5.448E-01
   1.365E+00  5.467E-01
   1.367E+00  5.486E-01
   1.369E+00  5.505E-01
   1.371E+00  5.524E-01
   1.373E+00  5.543E-01
   1.375E+00  5.562E-01
   1.377E+00  5.582E-01
   1.379E+00  5.601E-01
   1.381E+00  5.620E-01
   1.383E+00  5.639E-01
   1.385E+00  5.658E-01
   1.387E+00  5.677E-01
   1.389E+00  5.696E-01
   1.391E+00  5.715E-01
   1.393E+00  5.735E-01
   1.395E+00  5.754E-01
   1.397E+00  5.773E-01
   1.399E+00  5.792E-01
   1.401E+00  5.811E-01
   1.403E+00  5.830E-01
   1.405E+00  5.849E-01
   1.407E+00  5.869E-01
   1.409E+00  5.888E-01
   1.411E+00  5.907E-01
   1.413E+00  5.926E-01
   1.415E+00  5.945E-01
   1.417E+00  5.964E-01
   1.419E+00  5.984E-01
   1.421E+00  6.003E-01
   1.423E+00  6.022E-01
   1.425E+00  6.041E-01
   1.427E+00  6.060E-01
   1.429E+00  6.079E-01
   1.431E+00  6.099E-01
   1.433E+00  6.118E-01
   1.435E+00  6.137E-01
   1.437E+00  6.156E-01
   1.439E+00  6.175E-01
   1.441E+00  6.195E-01
   1.443E+00  6.214E-01
   1.445E+00  6.233E-01
   1.447E+00  6.252E-01
   1.449E+00  6.271E-01
   1.451E+00  6.291E-01
   1.453E+00  6.310E-01
   1.455E+00  6.329E-01
   1.457E+00  6.348E-01
   1.459E+00  6.367E-01
   1.461E+00  6.387E-01
   1.463E+00  6.406E-01
   1.465E+00  6.425E-01
   1.467E+00  6.444E-01
   1.469E+00  6.464E-01
   1.471E+00  6.483E-01
   1.473E+00  6.502E-01
   1.475E+00  6.521E-01
   1.477E+00  6.541E-01
   1.479E+00  6.560E-01
   1.481E+00  6.579E-01
   1.483E+00  6.598E-01
   1.485E+00  6.618E-01
   1.487E+00  6.637E-01
   1.489E+00  6.656E-01
   1.491E+00  6.675E-01
   1.493E+00  6.695E-01
   1.495E+00  6.714E-01
   1.497E+00  6.733E-01
   1.499E+00  6.752E-01
   1.502E+00  6.781E-01
   1.504E+00  6.800E-01
   1.506E+00  6.820E-01
   1.508E+00  6.839E-01
   1.510E+00  6.858E-01
   1.512E+00  6.878E-01
   1.514E+00  6.897E-01
   1.516E+00  6.916E-01
   1.518E+00  6.935E-01
   1.520E+00  6.955E-01
   1.522E+00  6.974E-01
   1.524E+00  6.993E-01
   1.526E+00  7.013E-01
   1.528E+00  7.032E-01
   1.530E+00  7.051E-01
   1.532E+00  7.070E-01
   1.534E+00  7.090E-01
   1.536E+00  7.109E-01
   1.538E+00  7.128E-01
   1.540E+00  7.148E-01
   1.542E+00  7.167E-01
   1.544E+00  7.186E-01
   1.546E+00  7.205E-01
   1.548E+00  7.225E-01
   1.550E+00  7.244E-01
   1.552E+00  7.263E-01
   1.554E+00  7.283E-01
   1.556E+00  7.302E-01
   1.558E+00  7.321E-01
   1.560E+00  7.341E-01
   1.562E+00  7.360E-01
   1.564E+00  7.379E-01
   1.566E+00  7.399E-01
   1.568E+00  7.418E-01
   1.570E+00  7.437E-01
   1.572E+00  7.457E-01
   1.574E+00  7.476E-01
   1.576E+00  7.495E-01
   1.578E+00  7.515E-01
   1.580E+00  7.534E-01
   1.582E+00  7.553E-01
   1.584E+00  7.573E-01
   1.586E+00  7.592E-01
   1.588E+00  7.611E-01
   1.590E+00  7.631E-01
   1.592E+00  7.650E-01
   1.594E+00  7.669E-01
   1.596E+00  7.689E-01
   1.598E+00  7.708E-01
   1.600E+00  7.727E-01
   1.602E+00  7.747E-01
   1.604E+00  7.766E-01
   1.606E+00  7.785E-01
   1.608E+00  7.805E-01
   1.610E+00  7.824E-01
   1.612E+00  7.844E-01
   1.614E+00  7.863E-01
   1.616E+00  7.882E-01
   1.618E+00  7.902E-01
   1.620E+00  7.921E-01
   1.622E+00  7.940E-01
   1.624E+00  7.960E-01
   1.626E+00  7.979E-01
   1.628E+00  7.998E-01
   1.630E+00  8.018E-01
   1.632E+00  8.037E-01
   1.634E+00  8.057E-01
   1.636E+00  8.076E-01
   1.638E+00  8.095E-01
   1.640E+00  8.115E-01
   1.642E+00  8.134E-01
   1.644E+00  8.154E-01
   1.646E+00  8.173E-01
   1.648E+00  8.192E-01
   1.650E+00  8.212E-01
   1.652E+00  8.231E-01
   1.654E+00  8.250E-01
   1.656E+00  8.270E-01
   1.658E+00  8.289E-01
   1.660E+00  8.309E-01
   1.662E+00  8.328E-01
